# Output of JWST_backgrounds version 1.1.2
# background cache version 1.0

# for RA=129.9779166666667, DEC=18.47669444444444 On calendar day 119
# Columns: 
# - Wavelength [micron] 
# - Total background (MJy/sr)
# - In-field zodiacal light (MJy/sr)
# - In-field galactic light (MJy/sr)
# - Stray light (MJy/sr)
# - Thermal self-emission (MJy/sr)
0.500000    0.4514    0.4088    0.0023    0.0403    0.0000
0.600000    0.6065    0.5404    0.0032    0.0629    0.0000
0.700000    0.6790    0.6066    0.0040    0.0685    0.0000
0.800000    0.7031    0.6262    0.0047    0.0722    0.0000
0.900000    0.6935    0.6150    0.0052    0.0733    0.0000
1.000000    0.6819    0.5858    0.0056    0.0905    0.0000
1.100000    0.6393    0.5472    0.0060    0.0861    0.0000
1.200000    0.5924    0.5046    0.0063    0.0815    0.0000
1.300000    0.5564    0.4719    0.0067    0.0778    0.0000
1.400000    0.5313    0.4492    0.0071    0.0751    0.0000
1.500000    0.5061    0.4263    0.0074    0.0723    0.0000
1.600000    0.4815    0.4041    0.0077    0.0697    0.0000
1.700000    0.4578    0.3827    0.0079    0.0672    0.0000
1.800000    0.4295    0.3625    0.0081    0.0589    0.0000
1.900000    0.4084    0.3435    0.0083    0.0566    0.0000
2.000000    0.3887    0.3257    0.0085    0.0546    0.0000
2.100000    0.3709    0.3090    0.0086    0.0533    0.0000
2.200000    0.3543    0.2936    0.0086    0.0521    0.0000
2.300000    0.3347    0.2752    0.0088    0.0508    0.0000
2.400000    0.3167    0.2582    0.0089    0.0495    0.0000
2.500000    0.3000    0.2426    0.0090    0.0484    0.0000
2.600000    0.2846    0.2282    0.0091    0.0473    0.0000
2.700000    0.2704    0.2149    0.0092    0.0463    0.0000
2.800000    0.2574    0.2026    0.0092    0.0455    0.0000
2.900000    0.2344    0.1913    0.0093    0.0338    0.0000
3.000000    0.2232    0.1808    0.0094    0.0330    0.0000
3.100000    0.2125    0.1710    0.0094    0.0321    0.0000
3.200000    0.2036    0.1620    0.0101    0.0315    0.0000
3.300000    0.1987    0.1535    0.0131    0.0320    0.0001
3.400000    0.1850    0.1457    0.0096    0.0297    0.0001
3.500000    0.2203    0.1755    0.0095    0.0351    0.0002
3.700000    0.2445    0.1963    0.0096    0.0383    0.0003
4.000000    0.3254    0.2675    0.0098    0.0471    0.0009
4.250000    0.4406    0.3756    0.0099    0.0532    0.0019
4.500000    0.6220    0.5386    0.0101    0.0698    0.0035
4.750000    0.8709    0.7633    0.0103    0.0912    0.0061
5.000000    1.1899    1.0522    0.0107    0.1171    0.0099
5.100000    1.3671    1.2122    0.0109    0.1321    0.0118
5.200000    1.5639    1.3902    0.0110    0.1486    0.0140
5.300000    1.7856    1.5871    0.0143    0.1677    0.0165
5.400000    2.0212    1.8034    0.0120    0.1865    0.0194
5.500000    2.2839    2.0399    0.0133    0.2081    0.0225
5.700000    2.8860    2.5752    0.0222    0.2587    0.0299
5.900000    3.5698    3.1961    0.0221    0.3127    0.0388
6.100000    4.3779    3.9044    0.0456    0.3784    0.0495
6.300000    5.3238    4.7002    0.0962    0.4652    0.0621
6.500000    6.2294    5.5826    0.0486    0.5214    0.0769
6.700000    7.2870    6.5492    0.0438    0.6001    0.0940
6.900000    8.4497    7.5966    0.0501    0.6893    0.1136
7.100000    9.6953    8.7203    0.0552    0.7838    0.1360
7.300000    11.0429    9.9153    0.0761    0.8898    0.1617
7.500000    12.5004    11.1756    0.1227    1.0112    0.1909
7.700000    14.0015    12.4949    0.1521    1.1302    0.2243
7.900000    15.4850    13.8665    0.1256    1.2306    0.2623
8.100000    17.0097    15.2834    0.0902    1.3304    0.3057
8.300000    18.6198    16.7387    0.0818    1.4440    0.3553
8.500000    20.2943    18.2252    0.0902    1.5668    0.4121
8.700000    21.9839    19.7362    0.0847    1.6857    0.4774
8.900000    23.6679    21.2647    0.0552    1.7956    0.5523
9.100000    25.4058    22.8043    0.0474    1.9155    0.6386
9.300000    27.1681    24.3487    0.0440    2.0375    0.7379
9.500000    28.9477    25.8920    0.0430    2.1605    0.8522
9.700000    30.7400    27.4287    0.0463    2.2812    0.9837
9.900000    32.5412    28.9535    0.0485    2.4043    1.1350
10.100000    34.3360    30.4616    0.0467    2.5197    1.3080
10.300000    36.1293    31.9485    0.0453    2.6285    1.5070
10.500000    37.9334    33.4104    0.0511    2.7379    1.7340
10.700000    39.7360    34.8434    0.0556    2.8439    1.9930
10.900000    41.5445    36.2444    0.0643    2.9488    2.2870
11.100000    43.3929    37.6105    0.0994    3.0620    2.6210
11.300000    45.2669    38.9390    0.1508    3.1792    2.9980
11.500000    47.0406    40.2277    0.1299    3.2610    3.4220
11.700000    48.7887    41.4749    0.0858    3.3290    3.8990
11.900000    50.6042    42.6788    0.0815    3.4110    4.4330
12.100000    52.6147    43.9986    0.0850    3.5031    5.0280
12.300000    54.8373    45.4483    0.0900    3.6081    5.6910
12.500000    57.1006    46.8708    0.0938    3.7101    6.4260
12.700000    59.4088    48.2647    0.0967    3.8093    7.2380
12.900000    61.7530    49.6290    0.0888    3.9012    8.1340
13.100000    64.1426    50.9625    0.0744    3.9876    9.1180
13.300000    66.6071    52.2646    0.0676    4.0748    10.2000
13.500000    69.1449    53.5345    0.0679    4.1624    11.3800
13.700000    71.7530    54.7717    0.0652    4.2461    12.6700
13.900000    74.4319    55.9757    0.0601    4.3261    14.0700
14.100000    77.2131    57.1462    0.0609    4.4060    15.6000
14.300000    80.0742    58.2830    0.0591    4.4821    17.2500
14.500000    83.0381    59.3861    0.0567    4.5553    19.0400
14.700000    86.1041    60.4554    0.0533    4.6254    20.9700
14.900000    89.2870    61.4909    0.0522    4.6939    23.0500
15.100000    92.5946    62.4928    0.0517    4.7601    25.2900
15.300000    96.0345    63.4613    0.0499    4.8233    27.7000
15.500000    99.6295    64.3967    0.0556    4.8872    30.2900
16.500000    120.0671    68.5892    0.0587    5.1593    46.2600
17.500000    145.8542    72.0172    0.0618    5.3753    68.4000
18.500000    179.0362    74.7503    0.0646    5.5413    98.6800
19.500000    222.2957    76.8644    0.0676    5.6637    139.7000
20.500000    279.1546    78.4353    0.0707    5.7486    194.9000
21.500000    354.0103    79.5352    0.0738    5.8013    268.6000
22.500000    452.1344    80.2305    0.0770    5.8270    366.0000
23.500000    579.6912    80.5812    0.0801    5.8298    493.2000
24.500000    743.7378    80.6406    0.0833    5.8138    657.2000
25.500000    951.2677    79.7484    0.0874    5.7319    865.7000
26.500000    1210.6558    77.9740    0.0922    5.5896    1127.0000
27.500000    1531.6129    76.0753    0.0970    5.4406    1450.0000
28.500000    1922.4777    74.0882    0.1022    5.2873    1843.0000
29.500000    2392.2815    72.0424    0.1074    5.1317    2315.0000
30.500000    2949.0502    69.9622    0.1128    4.9752    2874.0000
31.000000    3198.9282    68.9156    0.1155    4.8971    3125.0000
